Time,Peak Current
0,0.068443745
0.2,0.069092301
0.4,0.077362574
0.6,0.082593869
0.8,0.087534308
1,0.090303793
1.2,0.095672004
1.4,0.097759961
1.6,0.102209946
1.8,0.107325198
2,0.111333063
2.2,0.113824823
2.4,0.118096067
2.6,0.121483343
2.8,0.125573447
3,0.126658545
3.2,0.131439455
3.4,0.134104601
3.6,0.138078787
3.8,0.142432885
4,0.14562919
4.2,0.148769164
4.4,0.152870402
4.6,0.159121892
4.8,0.16236051
5,0.167227793
5.2,0.17193037
5.4,0.176334378
5.6,0.180728076
5.8,0.189474872
6,0.193782817
6.2,0.199424383
6.4,0.206168127
6.6,0.211319213
6.8,0.218434623
7,0.22443101
7.2,0.230499129
7.4,0.235297929
7.6,0.241442623
7.8,0.245538396
8,0.251644208
8.2,0.257914241
8.4,0.262847557
8.6,0.265964503
8.8,0.273620352
9,0.280468881
9.2,0.286107857
9.4,0.292996624
9.6,0.296989868
9.8,0.302871817
10,0.308147411
10.2,0.312969479
10.4,0.318509624
10.6,0.326029861
10.8,0.33016923
11,0.337670418
11.2,0.341888252
11.4,0.348365102
11.6,0.353949248
11.8,0.362093878
12,0.365580649
12.2,0.370144501
12.4,0.375782883
12.6,0.380425624
12.8,0.385885726
13,0.392907482
13.2,0.399163688
13.4,0.40262618
13.6,0.408022111
13.8,0.413994235
14,0.417732637
14.2,0.424290774
14.4,0.42834988
14.6,0.436086409
14.8,0.442389402
15,0.446484684
15.2,0.45473251
15.4,0.45797513
15.6,0.463182529
15.8,0.467637719
16,0.471335674
16.2,0.479165433
16.4,0.484284281
16.6,0.488665087
16.8,0.495349554
17,0.501481612
17.2,0.507038534
17.4,0.509812124
17.6,0.516656729
17.8,0.522459776
18,0.52984216
18.2,0.533533342
18.4,0.539406454
18.6,0.545792615
18.8,0.551504671
19,0.558696767
19.2,0.564522709
19.4,0.570593844
19.6,0.574458769
19.8,0.581553985
20,0.586063703
20.2,0.590420306
20.4,0.59477388
20.6,0.601404233
20.8,0.606789867
21,0.609176816
21.2,0.612441868
21.4,0.617516623
21.6,0.624725267
21.8,0.631767977
22,0.637540549
22.2,0.643603722
22.4,0.65058823
22.6,0.654763707
22.8,0.662154343
23,0.665618354
23.2,0.669610674
23.4,0.674138999
23.6,0.681996453
23.8,0.682784573
24,0.688438394
24.2,0.693953216
24.4,0.700105046
24.6,0.70505575
24.8,0.708634874
25,0.716430358
25.2,0.716917058
25.4,0.722226585
25.6,0.729566348
25.8,0.735333453
26,0.737994947
26.2,0.744594472
26.4,0.750039337
26.6,0.756537687
26.8,0.759502592
27,0.76132249
27.2,0.767929632
27.4,0.777758368
27.6,0.779264734
27.8,0.784722493
28,0.788333159
28.2,0.792750198
28.4,0.800037359
28.6,0.802074204
28.8,0.809242384
29,0.816447741
29.2,0.819725996
29.4,0.824307921
29.6,0.827216731
29.8,0.834829943
30,0.838793926
30.2,0.839629026
30.4,0.846326374
30.6,0.853255783
30.8,0.857403376
31,0.85891936
31.2,0.866383402
31.4,0.869071376
31.6,0.875584189
31.8,0.884143397
32,0.885367556
32.2,0.891586803
32.4,0.898718435
32.6,0.905002721
32.8,0.904731376
33,0.90953305
33.2,0.91750574
33.4,0.923866419
33.6,0.927510763
33.8,0.931137202
34,0.940491266
34.2,0.945392934
34.4,0.947642445
34.6,0.957292932
34.8,0.959402419
35,0.964246214
35.2,0.966478656
35.4,0.970851316
35.6,0.971680193
35.8,0.977460939
36,0.978412515
36.2,0.982694415
36.4,0.988079852
36.6,0.988140357
36.8,0.995265586
37,0.999925877
37.2,1.007552916
37.4,1.009499127
37.6,1.014960104
37.8,1.017815072
38,1.022755767
38.2,1.028785678
38.4,1.033445101
38.6,1.041346904
38.8,1.044719836
39,1.04653942
39.2,1.052040001
39.4,1.056182365
39.6,1.058403146
39.8,1.065008773
40,1.070943943
40.2,1.072497789
40.4,1.080430491
40.6,1.086410127
40.8,1.084969953
41,1.089599457
41.2,1.091462029
41.4,1.10197711
41.6,1.108013615
41.8,1.116655119
42,1.11919051
42.2,1.126281743
42.4,1.128896471
42.6,1.131925349
42.8,1.136973263
43,1.143072939
43.2,1.14785072
43.4,1.156637041
43.6,1.157712035
43.8,1.165146864
44,1.171243048
44.2,1.172752139
44.4,1.178126507
44.6,1.182240846
44.8,1.187211321
45,1.191730404
45.2,1.199190823
45.4,1.205855306
45.6,1.211496232
45.8,1.217308407
46,1.220910171
46.2,1.226973284
46.4,1.228014023
46.6,1.235426279
46.8,1.239652292
47,1.24651988
47.2,1.246320212
47.4,1.255587316
47.6,1.253586971
47.8,1.258620761
48,1.265070712
48.2,1.27555355
48.4,1.280904541
48.6,1.283991525
48.8,1.290594002
49,1.290426739
49.2,1.29074573
49.4,1.296100976
49.6,1.303574059
49.8,1.306775463
50,1.315545596
50.2,1.316387729
50.4,1.320881739
50.6,1.326003645
50.8,1.330614673
51,1.336303852
51.2,1.340838623
51.4,1.345762717
51.6,1.350417972
51.8,1.354227552
52,1.356652377
52.2,1.357591058
52.4,1.359945289
52.6,1.363764482
52.8,1.368184328
53,1.3741211
53.2,1.374689953
53.4,1.378246381
53.6,1.383494298
53.8,1.382435611
54,1.388047345
54.2,1.392209883
54.4,1.398114239
54.6,1.399594891
54.8,1.405992019
55,1.408777041
55.2,1.415580351
55.4,1.416055208
55.6,1.422941157
55.8,1.429467563
56,1.436829396
56.2,1.444794054
56.4,1.450904433
56.6,1.452586825
56.8,1.457270008
57,1.463309677
57.2,1.46820622
57.4,1.472043395
57.6,1.477241065
57.8,1.484900845
58,1.486996271
58.2,1.487503055
58.4,1.490087825
58.6,1.492805462
58.8,1.494485953
59,1.499731606
59.2,1.502341201
59.4,1.509110043
59.6,1.51350678
59.8,1.516603845
60,1.524203303
60.2,1.524750328
60.4,1.527066579
60.6,1.535913118
60.8,1.54260371
61,1.544183241
61.2,1.546638431
61.4,1.546122578
61.6,1.5537001
61.8,1.560089906
62,1.559511561
62.2,1.56564822
62.4,1.571846763
62.6,1.57404582
62.8,1.572639915
63,1.574722611
63.2,1.576241245
63.4,1.578633937
63.6,1.579032541
63.8,1.582816488
64,1.585381638
64.2,1.589965388
64.4,1.589786514
64.6,1.594709816
64.8,1.601319604
65,1.604870677
65.2,1.610905896
65.4,1.615882964
65.6,1.616396234
65.8,1.619344367
66,1.62452291
66.2,1.623792269
66.4,1.632062155
66.6,1.633335187
66.8,1.638251108
67,1.644076934
67.2,1.651107602
67.4,1.657082451
67.6,1.663571542
67.8,1.667008474
68,1.672066809
68.2,1.675324548
68.4,1.682237865
68.6,1.686528629
68.8,1.687561014
69,1.690263829
69.2,1.690365164
69.4,1.69845545
69.6,1.701210781
69.8,1.707678608
70,1.70520952
70.2,1.708158555
70.4,1.717026426
70.6,1.7213854
70.8,1.72202936
71,1.726303255
71.2,1.729384732
71.4,1.732278244
71.6,1.734122447
71.8,1.739036918
72,1.742850521
72.2,1.742472408
72.4,1.742542947
72.6,1.748309821
72.8,1.752965381
73,1.752937247
73.2,1.757065118
73.4,1.759808033
73.6,1.760096551
73.8,1.76391104
74,1.764936249
74.2,1.766538503
74.4,1.769875824
74.6,1.770060088
74.8,1.773980706
75,1.781632758
75.2,1.783662022
75.4,1.786960842
75.6,1.788352362
75.8,1.793342873
76,1.794027231
76.2,1.798092622
76.4,1.803638789
76.6,1.805770639
76.8,1.809488858
77,1.816033767
77.2,1.818955497
77.4,1.82299353
77.6,1.822420026
77.8,1.824517711
78,1.830557962
78.2,1.832686456
78.4,1.831660797
78.6,1.834698269
78.8,1.83752586
79,1.837424084
79.2,1.846845626
79.4,1.850047656
79.6,1.855878812
79.8,1.857756717
80,1.858070767
80.2,1.860221021
80.4,1.868046579
80.6,1.867701869
80.8,1.870873039
81,1.876882941
81.2,1.878019806
81.4,1.880927136
81.6,1.886171408
81.8,1.894602716
82,1.897134947
82.2,1.90062931
82.4,1.902403845
82.6,1.908804573
82.8,1.90874782
83,1.907266875
83.2,1.914295628
83.4,1.91336647
83.6,1.922967687
83.8,1.922494696
84,1.924680725
84.2,1.929473048
84.4,1.930561351
84.6,1.931644594
84.8,1.934277415
85,1.933833589
85.2,1.9340939
85.4,1.937510882
85.6,1.94187882
85.8,1.946845039
86,1.948967483
86.2,1.954610172
86.4,1.955199844
86.6,1.960555721
86.8,1.964965204
87,1.970755196
87.2,1.971466623
87.4,1.971687706
87.6,1.977516679
87.8,1.977017445
88,1.979261148
88.2,1.983683249
88.4,1.984838783
88.6,1.992527147
88.8,1.986617692
89,1.991475104
89.2,1.990892007
89.4,1.992024649
89.6,1.998805886
89.8,2.00526975
90,2.007163013
90.2,2.009327818
90.4,2.01178434
90.6,2.013904115
90.8,2.018261112
91,2.016019785
91.2,2.016228443
91.4,2.016244109
91.6,2.017371798
91.8,2.022614602
92,2.028918253
92.2,2.029342937
92.4,2.03084664
92.6,2.035355171
92.8,2.039744322
93,2.041181108
93.2,2.041093122
93.4,2.042001869
93.6,2.046663426
93.8,2.050700126
94,2.055496564
94.2,2.059515558
94.4,2.057052125
94.6,2.060282529
94.8,2.063271864
95,2.066533502
95.2,2.063590722
95.4,2.066892385
95.6,2.068083884
95.8,2.069679975
96,2.071551391
96.2,2.077159747
96.4,2.076856961
96.6,2.083607935
96.8,2.085035946
97,2.085637396
97.2,2.091035581
97.4,2.092602309
97.6,2.094319859
97.8,2.094400961
98,2.094218647
98.2,2.096376942
98.4,2.098575704
98.6,2.104513375
98.8,2.102849663
99,2.106425061
99.2,2.111363776
99.4,2.115909389
99.6,2.116986524
99.8,2.118430641
100,2.121141962
100.2,2.120835751
100.4,2.125762479
100.6,2.127890669
100.8,2.127656495
101,2.130182604
101.2,2.130668206
101.4,2.128761055
101.6,2.136417601
101.8,2.1385841
102,2.142818153
102.2,2.149758013
102.4,2.151115895
102.6,2.154645682
102.8,2.156623418
103,2.157717834
103.2,2.161652637
103.4,2.162336413
103.6,2.1678572
103.8,2.166467083
104,2.16894575
104.2,2.16718623
104.4,2.170321486
104.6,2.170961239
104.8,2.16990408
105,2.174773915
105.2,2.172945125
105.4,2.175182135
105.6,2.172800623
105.8,2.173796645
106,2.181228335
106.2,2.179933294
106.4,2.183164195
106.6,2.184483341
106.8,2.186396004
107,2.192718498
107.2,2.195047045
107.4,2.202227746
107.6,2.203514432
107.8,2.209765922
108,2.215805298
108.2,2.217058036
108.4,2.222908923
108.6,2.217258894
108.8,2.220651054
109,2.219491509
109.2,2.218449226
109.4,2.220563881
109.6,2.225403932
109.8,2.223387327
110,2.228335776
110.2,2.231755378
110.4,2.234133297
110.6,2.23429573
110.8,2.240512694
111,2.237308309
111.2,2.235209882
111.4,2.233679498
111.6,2.234868776
111.8,2.236383238
112,2.233364357
112.2,2.232779217
112.4,2.232879253
112.6,2.230717646
112.8,2.230197452
113,2.230701465
113.2,2.235668333
113.4,2.240638523
113.6,2.244945447
113.8,2.248853935
114,2.249866009
114.2,2.253811198
114.4,2.253789464
114.6,2.260975298
114.8,2.263730281
115,2.265076364
115.2,2.265209731
115.4,2.27088736
115.6,2.271491468
115.8,2.273740232
116,2.278130294
116.2,2.275179591
116.4,2.280632975
116.6,2.285464817
116.8,2.283355891
117,2.284820167
117.2,2.287198283
117.4,2.286440824
117.6,2.282979926
117.8,2.284547921
118,2.288011302
118.2,2.288216412
118.4,2.288975394
118.6,2.28987082
118.8,2.295409563
119,2.293925404
119.2,2.299121668
119.4,2.298282869
119.6,2.29693138
119.8,2.296532856
120,2.297086112
120.2,2.299984054
120.4,2.302294774
120.6,2.308898185
120.8,2.308753608
121,2.311622086
121.2,2.311288553
121.4,2.315561951
121.6,2.318510824
121.8,2.318279867
122,2.313862678
122.2,2.31425523
122.4,2.316959542
122.6,2.320404736
122.8,2.320918923
123,2.318705426
123.2,2.320863148
123.4,2.32029088
123.6,2.315705109
123.8,2.320054121
124,2.317217425
124.2,2.316853938
124.4,2.316366853
124.6,2.316680316
124.8,2.317609468
125,2.322490992
125.2,2.315698645
125.4,2.319159326
125.6,2.324487022
125.8,2.323589375
126,2.328408871
126.2,2.331094431
126.4,2.335519589
126.6,2.335553204
126.8,2.337361924
127,2.338770461
127.2,2.335984582
127.4,2.339465779
127.6,2.339807453
127.8,2.342986505
128,2.342483466
128.2,2.341630558
128.4,2.339945891
128.6,2.341204748
128.8,2.338538138
129,2.339909883
129.2,2.342647967
129.4,2.350117588
129.6,2.347934071
129.8,2.35605376
130,2.351519247
130.2,2.355869175
130.4,2.352254164
130.6,2.359070698
130.8,2.359139793
131,2.357730034
131.2,2.358680519
131.4,2.365165053
131.6,2.365846933
131.8,2.363926979
132,2.370030507
132.2,2.366110295
132.4,2.370422907
132.6,2.36569902
132.8,2.371436932
133,2.373939924
133.2,2.369594676
133.4,2.371254675
133.6,2.372241989
133.8,2.37142493
134,2.373329882
134.2,2.372261033
134.4,2.369776472
134.6,2.374769469
134.8,2.374887854
135,2.370474532
135.2,2.376258628
135.4,2.379432555
135.6,2.381967498
135.8,2.387989469
136,2.385475713
136.2,2.387442718
136.4,2.385015146
136.6,2.384392802
136.8,2.381975499
137,2.387232097
137.2,2.387358815
137.4,2.386052051
137.6,2.389035444
137.8,2.393530089
138,2.390678909
138.2,2.388855241
138.4,2.388455353
138.6,2.387211408
138.8,2.394418829
139,2.396535614
139.2,2.392755921
139.4,2.394747553
139.6,2.391768199
139.8,2.393038344
140,2.390976426
140.2,2.393685289
140.4,2.393924556
140.6,2.394223086
140.8,2.397466301
141,2.39959087
141.2,2.402259048
141.4,2.401507032
141.6,2.404342326
141.8,2.399280944
142,2.408123393
142.2,2.404041903
142.4,2.408453829
142.6,2.403972958
142.8,2.405389828
143,2.407118002
143.2,2.406602698
143.4,2.409715181
143.6,2.411385498
143.8,2.407367987
144,2.412955349
144.2,2.40744874
144.4,2.409110636
144.6,2.413025158
144.8,2.416349845
145,2.413575029
145.2,2.414432856
145.4,2.413958229
145.6,2.416638413
145.8,2.421707947
146,2.416898877
146.2,2.421135562
146.4,2.41512332
146.6,2.42118347
146.8,2.420400257
147,2.418703755
147.2,2.420738795
147.4,2.418295398
147.6,2.421426612
147.8,2.42266708
148,2.41933902
148.2,2.423361177
148.4,2.423501326
148.6,2.421226123
148.8,2.417995486
149,2.425050641
149.2,2.424794801
149.4,2.427626602
149.6,2.427181995
149.8,2.426809452
150,2.424263492
150.2,2.426378359
150.4,2.425776251
150.6,2.427984337
150.8,2.425441972
151,2.425817296
151.2,2.422488556
151.4,2.426384487
151.6,2.427743212
151.8,2.429708713
152,2.43612704
152.2,2.425348781
152.4,2.425716523
152.6,2.428086739
152.8,2.430271592
153,2.430624174
153.2,2.437203787
153.4,2.435097256
153.6,2.435977441
153.8,2.437100962
154,2.436347023
154.2,2.439546937
154.4,2.436552739
154.6,2.438283718
154.8,2.436765465
155,2.436052584
155.2,2.439788998
155.4,2.440137009
155.6,2.443196783
155.8,2.439471514
156,2.43800131
156.2,2.438887363
156.4,2.445488231
156.6,2.442085036
156.8,2.444899623
157,2.442508973
157.2,2.445025637
157.4,2.448662271
157.6,2.44439487
157.8,2.445892593
158,2.444782438
158.2,2.446850989
158.4,2.449197498
158.6,2.451841288
158.8,2.45444871
159,2.456873952
159.2,2.454742716
159.4,2.449404937
159.6,2.453193164
159.8,2.447179647
160,2.448288447
160.2,2.443374132
160.4,2.446982002
160.6,2.453402222
160.8,2.451550154
161,2.452439227
161.2,2.451212211
161.4,2.44674044
161.6,2.447357857
161.8,2.450131989
162,2.45137069
162.2,2.453720329
162.4,2.44857222
162.6,2.451660724
162.8,2.45630043
163,2.452749169
163.2,2.452332122
163.4,2.45042796
163.6,2.452327613
163.8,2.448092239
164,2.450533903
164.2,2.448474551
164.4,2.4482604
164.6,2.450670997
164.8,2.451962869
165,2.457049905
165.2,2.451166391
165.4,2.454135547
165.6,2.457158729
165.8,2.452689021
166,2.454723391
166.2,2.453429841
166.4,2.020857521
